time,energy
0.000000,0.00000e+00
0.099000,2.98786e+04
0.199000,1.21341e+05
0.299000,2.74395e+05
0.399000,4.89040e+05
0.499000,7.65276e+05
0.599000,1.10310e+06
0.699000,1.50252e+06
0.799000,1.96353e+06
0.899000,2.48613e+06
0.999000,3.07032e+06
1.099000,3.71611e+06
1.199000,4.42348e+06
1.299000,5.19244e+06
1.399000,6.02300e+06
1.499000,6.91515e+06
1.599000,7.86889e+06
1.699000,8.88422e+06
1.799000,9.96114e+06
1.899000,1.10996e+07
1.999000,1.22998e+07
