time,energy
0,0
0.1,3.0795552e+04
0.2,1.23182208e+05
0.3,2.77159968e+05
0.4,4.92728832e+05
0.5,7.698888e+05
0.6,1.108639872e+06
0.7,1.508982048e+06
0.8,1.970915328e+06
0.9,2.494439712e+06
1.0,3.0795552e+06
1.1,3.726261792e+06
1.2,4.434559488e+06
1.3,5.204448288e+06
1.4,6.035928192e+06
1.5,6.9289992e+06
1.6,7.883661312e+06
1.7,8.899914528e+06
1.8,9.977758848e+06
1.9,1.111719427e+07
2.0,1.23182208e+07
