time,energy
0.0,0
0.1,3.04884e+04
0.2,1.22567e+05
0.3,2.76237e+05
0.4,4.91498e+05
0.5,7.68350e+05
0.6,1.10679e+06
0.7,1.50683e+06
0.8,1.96845e+06
0.9,2.49167e+06
1.0,3.07648e+06
1.1,3.72288e+06
1.2,4.43086e+06
1.3,5.20045e+06
1.4,6.03162e+06
1.5,6.92438e+06
1.6,7.87873e+06
1.7,8.89468e+06
1.8,9.97222e+06
1.9,1.11113e+07
2.0,1.23121e+07
